 #Kx Ky(2pi/N)           0           0
  0.62831853E+00  0.29224265E+00 -0.64211642E-01 -0.55190995E-02  0.48398585E-02
  0.18849556E+01  0.22386580E+00 -0.13793732E+00 -0.27214243E-02  0.37995270E-02
  0.31415927E+01  0.15370185E+00 -0.15462685E+00 -0.63093527E-03  0.35259219E-02
  0.43982297E+01  0.10514295E+00 -0.14656529E+00  0.48678664E-03  0.26051416E-02
  0.56548668E+01  0.74157357E-01 -0.13214943E+00  0.84042250E-03  0.17734734E-02
  0.69115038E+01  0.54157213E-01 -0.11786334E+00  0.83412891E-03  0.12329650E-02
  0.81681409E+01  0.41026121E-01 -0.10530512E+00  0.77184274E-03  0.86707616E-03
  0.94247780E+01  0.31832918E-01 -0.94412675E-01  0.67422857E-03  0.61571041E-03
  0.10681415E+02  0.25599012E-01 -0.85421090E-01  0.58744881E-03  0.45754007E-03
  0.11938052E+02  0.20911264E-01 -0.77741057E-01  0.51067507E-03  0.34038680E-03
  0.13194689E+02  0.17423977E-01 -0.71326476E-01  0.45895907E-03  0.25781797E-03
  0.14451326E+02  0.14626005E-01 -0.65810205E-01  0.40188393E-03  0.20306576E-03
  0.15707963E+02  0.12482339E-01 -0.60954413E-01  0.35154334E-03  0.15823989E-03
  0.16964600E+02  0.10778334E-01 -0.56746267E-01  0.31861364E-03  0.12295464E-03
  0.18221237E+02  0.93996788E-02 -0.53104196E-01  0.28726992E-03  0.99219481E-04
  0.19477874E+02  0.83301127E-02 -0.49888929E-01  0.25811883E-03  0.86594548E-04
  0.20734512E+02  0.73498001E-02 -0.47039383E-01  0.23964628E-03  0.73905116E-04
  0.21991149E+02  0.66009912E-02 -0.44483126E-01  0.22466580E-03  0.61308583E-04
  0.23247786E+02  0.59107933E-02 -0.42126624E-01  0.20896176E-03  0.45063459E-04
  0.24504423E+02  0.53285744E-02 -0.40110989E-01  0.19125905E-03  0.43844529E-04
  0.25761060E+02  0.48468078E-02 -0.38208176E-01  0.18275054E-03  0.32906221E-04
  0.27017697E+02  0.44468327E-02 -0.36486889E-01  0.16965819E-03  0.32793673E-04
  0.28274334E+02  0.40329364E-02 -0.34897962E-01  0.16294135E-03  0.25389260E-04
  0.29530971E+02  0.37279302E-02 -0.33465143E-01  0.15733793E-03  0.23878518E-04
  0.30787608E+02  0.34163795E-02 -0.32157302E-01  0.14962828E-03  0.17656146E-04
  0.32044245E+02  0.31752526E-02 -0.30949622E-01  0.14779149E-03  0.15878153E-04
  0.33300882E+02  0.29567278E-02 -0.29791192E-01  0.14291444E-03  0.11716507E-04
  0.34557519E+02  0.27511870E-02 -0.28739817E-01  0.13679343E-03  0.10071316E-04
  0.35814156E+02  0.25676485E-02 -0.27745860E-01  0.13632302E-03  0.51719896E-05
  0.37070793E+02  0.24128633E-02 -0.26833085E-01  0.13321216E-03  0.51915782E-05
  0.38327430E+02  0.22278423E-02 -0.25966548E-01  0.13397252E-03 -0.13004655E-06
  0.39584067E+02  0.21189341E-02 -0.25170023E-01  0.13368333E-03  0.97157951E-06
 
 #Kx Ky(2pi/N)           0           1
  0.62831853E+00  0.52295506E+00 -0.21977636E+00 -0.13173144E-01  0.12491713E-01
  0.18849556E+01  0.24620578E+00 -0.30072173E+00  0.15855473E-02  0.11855375E-01
  0.31415927E+01  0.12275789E+00 -0.24577821E+00  0.37397389E-02  0.56668760E-02
  0.43982297E+01  0.70499792E-01 -0.19641932E+00  0.29694748E-02  0.28092298E-02
  0.56548668E+01  0.45213489E-01 -0.16112110E+00  0.21951391E-02  0.15323479E-02
  0.69115038E+01  0.31268266E-01 -0.13570133E+00  0.16394601E-02  0.92026912E-03
  0.81681409E+01  0.22755659E-01 -0.11676740E+00  0.12404034E-02  0.56918677E-03
  0.94247780E+01  0.17314326E-01 -0.10214069E+00  0.97478308E-03  0.38387854E-03
  0.10681415E+02  0.13614143E-01 -0.90886395E-01  0.78204666E-03  0.27332668E-03
  0.11938052E+02  0.11043367E-01 -0.81885234E-01  0.64382922E-03  0.19326609E-03
  0.13194689E+02  0.90386698E-02 -0.74381598E-01  0.54067570E-03  0.14703319E-03
  0.14451326E+02  0.76439558E-02 -0.68119315E-01  0.46598359E-03  0.10827005E-03
  0.15707963E+02  0.64422012E-02 -0.62814349E-01  0.40621391E-03  0.89274509E-04
  0.16964600E+02  0.55383902E-02 -0.58277805E-01  0.35498120E-03  0.67373889E-04
  0.18221237E+02  0.48395387E-02 -0.54301446E-01  0.31821972E-03  0.53624518E-04
  0.19477874E+02  0.42431747E-02 -0.50836074E-01  0.28393671E-03  0.43093843E-04
  0.20734512E+02  0.37271880E-02 -0.47840576E-01  0.26031059E-03  0.39548759E-04
  0.21991149E+02  0.33240068E-02 -0.45143227E-01  0.23953474E-03  0.32545041E-04
  0.23247786E+02  0.29885772E-02 -0.42737094E-01  0.21947666E-03  0.27115619E-04
  0.24504423E+02  0.26753186E-02 -0.40605037E-01  0.20366582E-03  0.24858769E-04
  0.25761060E+02  0.24550217E-02 -0.38580240E-01  0.19162777E-03  0.19105037E-04
  0.27017697E+02  0.22563803E-02 -0.36910130E-01  0.17853144E-03  0.16778824E-04
  0.28274334E+02  0.20513446E-02 -0.35145476E-01  0.17050120E-03  0.11312905E-04
  0.29530971E+02  0.18934675E-02 -0.33742252E-01  0.16258137E-03  0.11804621E-04
  0.30787608E+02  0.17354472E-02 -0.32345586E-01  0.15597728E-03  0.73440043E-05
  0.32044245E+02  0.16341774E-02 -0.31124684E-01  0.15104519E-03  0.71770579E-05
  0.33300882E+02  0.15258974E-02 -0.29921033E-01  0.14723874E-03  0.44460040E-05
  0.34557519E+02  0.14084272E-02 -0.28832936E-01  0.14334711E-03  0.28434740E-05
  0.35814156E+02  0.13097906E-02 -0.27821306E-01  0.14121647E-03  0.27666419E-05
  0.37070793E+02  0.12341096E-02 -0.26898470E-01  0.13778955E-03  0.56395847E-06
  0.38327430E+02  0.11521842E-02 -0.26045185E-01  0.13702149E-03 -0.54452716E-06
  0.39584067E+02  0.10901410E-02 -0.25228605E-01  0.13658287E-03  0.10237819E-05
 
 #Kx Ky(2pi/N)           0           2
  0.62831853E+00  0.28721622E-01 -0.13689836E+01  0.21104637E+00 -0.14416893E+00
  0.18849556E+01  0.15695249E-02 -0.49869796E+00  0.26365875E-01 -0.30237942E-02
  0.31415927E+01  0.39815959E-03 -0.30672865E+00  0.97964249E-02 -0.75014096E-03
  0.43982297E+01  0.18145750E-03 -0.22184654E+00  0.51003543E-02 -0.21134504E-03
  0.56548668E+01  0.64271541E-04 -0.17317042E+00  0.30621138E-02 -0.12056718E-03
  0.69115038E+01  0.21832135E-04 -0.14267738E+00  0.20570878E-02 -0.51335435E-04
  0.81681409E+01 -0.35246340E-05 -0.12131601E+00  0.14680178E-02 -0.33939057E-04
  0.94247780E+01 -0.11349796E-04 -0.10560884E+00  0.11038523E-02 -0.94903145E-05
  0.10681415E+02  0.17713825E-05 -0.93170346E-01  0.86976691E-03 -0.64998964E-05
  0.11938052E+02  0.10106043E-04 -0.83269994E-01  0.70344505E-03 -0.19449618E-05
  0.13194689E+02  0.13068727E-04 -0.75440436E-01  0.58216003E-03 -0.58077620E-05
  0.14451326E+02  0.17188894E-04 -0.68871248E-01  0.49148880E-03 -0.71480348E-05
  0.15707963E+02  0.18938300E-04 -0.63514061E-01  0.42232330E-03 -0.95822340E-05
  0.16964600E+02  0.24932550E-04 -0.58780515E-01  0.37043286E-03 -0.43054933E-05
  0.18221237E+02  0.26575756E-04 -0.54743979E-01  0.32625463E-03 -0.38187345E-05
  0.19477874E+02  0.30957602E-04 -0.51111640E-01  0.29218823E-03 -0.70949625E-05
  0.20734512E+02  0.30369651E-04 -0.48061047E-01  0.26134854E-03  0.24631925E-05
  0.21991149E+02  0.33870441E-04 -0.45432247E-01  0.24027288E-03 -0.36664120E-05
  0.23247786E+02  0.38714483E-04 -0.42944674E-01  0.22313329E-03  0.65879070E-06
  0.24504423E+02  0.40022259E-04 -0.40816935E-01  0.20661954E-03  0.40717374E-05
  0.25761060E+02  0.43143869E-04 -0.38742988E-01  0.19324140E-03  0.51876803E-06
  0.27017697E+02  0.45961721E-04 -0.36975198E-01  0.18267429E-03  0.15327106E-05
  0.28274334E+02  0.49600345E-04 -0.35260367E-01  0.17392605E-03 -0.94793241E-06
  0.29530971E+02  0.50255630E-04 -0.33674166E-01  0.16364733E-03 -0.38633992E-05
  0.30787608E+02  0.54393971E-04 -0.32360222E-01  0.15910927E-03 -0.26191001E-05
  0.32044245E+02  0.57333912E-04 -0.31130511E-01  0.15424185E-03 -0.21030300E-05
  0.33300882E+02  0.56988887E-04 -0.29951715E-01  0.14669674E-03 -0.37309238E-06
  0.34557519E+02  0.60577904E-04 -0.28983132E-01  0.14457750E-03 -0.37828899E-06
  0.35814156E+02  0.64702906E-04 -0.27850360E-01  0.14226464E-03 -0.11167425E-05
  0.37070793E+02  0.67876410E-04 -0.26971171E-01  0.14061834E-03 -0.40186944E-05
  0.38327430E+02  0.70778785E-04 -0.26036572E-01  0.13856669E-03 -0.31858282E-05
  0.39584067E+02  0.73665131E-04 -0.25216797E-01  0.13725147E-03 -0.26741651E-05
 
 #Kx Ky(2pi/N)           0           3
  0.62831853E+00  0.52295506E+00 -0.21977636E+00 -0.13173144E-01  0.12491713E-01
  0.18849556E+01  0.24620578E+00 -0.30072173E+00  0.15855473E-02  0.11855375E-01
  0.31415927E+01  0.12275789E+00 -0.24577821E+00  0.37397389E-02  0.56668760E-02
  0.43982297E+01  0.70499792E-01 -0.19641932E+00  0.29694748E-02  0.28092298E-02
  0.56548668E+01  0.45213489E-01 -0.16112110E+00  0.21951391E-02  0.15323479E-02
  0.69115038E+01  0.31268266E-01 -0.13570133E+00  0.16394601E-02  0.92026912E-03
  0.81681409E+01  0.22755659E-01 -0.11676740E+00  0.12404034E-02  0.56918677E-03
  0.94247780E+01  0.17314326E-01 -0.10214069E+00  0.97478308E-03  0.38387854E-03
  0.10681415E+02  0.13614143E-01 -0.90886395E-01  0.78204666E-03  0.27332668E-03
  0.11938052E+02  0.11043367E-01 -0.81885234E-01  0.64382922E-03  0.19326609E-03
  0.13194689E+02  0.90386698E-02 -0.74381598E-01  0.54067570E-03  0.14703319E-03
  0.14451326E+02  0.76439558E-02 -0.68119315E-01  0.46598359E-03  0.10827005E-03
  0.15707963E+02  0.64422012E-02 -0.62814349E-01  0.40621391E-03  0.89274509E-04
  0.16964600E+02  0.55383902E-02 -0.58277805E-01  0.35498120E-03  0.67373889E-04
  0.18221237E+02  0.48395387E-02 -0.54301446E-01  0.31821972E-03  0.53624518E-04
  0.19477874E+02  0.42431747E-02 -0.50836074E-01  0.28393671E-03  0.43093843E-04
  0.20734512E+02  0.37271880E-02 -0.47840576E-01  0.26031059E-03  0.39548759E-04
  0.21991149E+02  0.33240068E-02 -0.45143227E-01  0.23953474E-03  0.32545041E-04
  0.23247786E+02  0.29885772E-02 -0.42737094E-01  0.21947666E-03  0.27115619E-04
  0.24504423E+02  0.26753186E-02 -0.40605037E-01  0.20366582E-03  0.24858769E-04
  0.25761060E+02  0.24550217E-02 -0.38580240E-01  0.19162777E-03  0.19105037E-04
  0.27017697E+02  0.22563803E-02 -0.36910130E-01  0.17853144E-03  0.16778824E-04
  0.28274334E+02  0.20513446E-02 -0.35145476E-01  0.17050120E-03  0.11312905E-04
  0.29530971E+02  0.18934675E-02 -0.33742252E-01  0.16258137E-03  0.11804621E-04
  0.30787608E+02  0.17354472E-02 -0.32345586E-01  0.15597728E-03  0.73440043E-05
  0.32044245E+02  0.16341774E-02 -0.31124684E-01  0.15104519E-03  0.71770579E-05
  0.33300882E+02  0.15258974E-02 -0.29921033E-01  0.14723874E-03  0.44460040E-05
  0.34557519E+02  0.14084272E-02 -0.28832936E-01  0.14334711E-03  0.28434740E-05
  0.35814156E+02  0.13097906E-02 -0.27821306E-01  0.14121647E-03  0.27666419E-05
  0.37070793E+02  0.12341096E-02 -0.26898470E-01  0.13778955E-03  0.56395847E-06
  0.38327430E+02  0.11521842E-02 -0.26045185E-01  0.13702149E-03 -0.54452716E-06
  0.39584067E+02  0.10901410E-02 -0.25228605E-01  0.13658287E-03  0.10237819E-05
 
 #Kx Ky(2pi/N)           1           0
  0.62831853E+00  0.52295506E+00 -0.21977636E+00 -0.13173144E-01  0.12491713E-01
  0.18849556E+01  0.24620578E+00 -0.30072173E+00  0.15855473E-02  0.11855375E-01
  0.31415927E+01  0.12275789E+00 -0.24577821E+00  0.37397389E-02  0.56668760E-02
  0.43982297E+01  0.70499792E-01 -0.19641932E+00  0.29694748E-02  0.28092298E-02
  0.56548668E+01  0.45213489E-01 -0.16112110E+00  0.21951391E-02  0.15323479E-02
  0.69115038E+01  0.31268266E-01 -0.13570133E+00  0.16394601E-02  0.92026912E-03
  0.81681409E+01  0.22755659E-01 -0.11676740E+00  0.12404034E-02  0.56918677E-03
  0.94247780E+01  0.17314326E-01 -0.10214069E+00  0.97478308E-03  0.38387854E-03
  0.10681415E+02  0.13614143E-01 -0.90886395E-01  0.78204666E-03  0.27332668E-03
  0.11938052E+02  0.11043367E-01 -0.81885234E-01  0.64382922E-03  0.19326609E-03
  0.13194689E+02  0.90386698E-02 -0.74381598E-01  0.54067570E-03  0.14703319E-03
  0.14451326E+02  0.76439558E-02 -0.68119315E-01  0.46598359E-03  0.10827005E-03
  0.15707963E+02  0.64422012E-02 -0.62814349E-01  0.40621391E-03  0.89274509E-04
  0.16964600E+02  0.55383902E-02 -0.58277805E-01  0.35498120E-03  0.67373889E-04
  0.18221237E+02  0.48395387E-02 -0.54301446E-01  0.31821972E-03  0.53624518E-04
  0.19477874E+02  0.42431747E-02 -0.50836074E-01  0.28393671E-03  0.43093843E-04
  0.20734512E+02  0.37271880E-02 -0.47840576E-01  0.26031059E-03  0.39548759E-04
  0.21991149E+02  0.33240068E-02 -0.45143227E-01  0.23953474E-03  0.32545041E-04
  0.23247786E+02  0.29885772E-02 -0.42737094E-01  0.21947666E-03  0.27115619E-04
  0.24504423E+02  0.26753186E-02 -0.40605037E-01  0.20366582E-03  0.24858769E-04
  0.25761060E+02  0.24550217E-02 -0.38580240E-01  0.19162777E-03  0.19105037E-04
  0.27017697E+02  0.22563803E-02 -0.36910130E-01  0.17853144E-03  0.16778824E-04
  0.28274334E+02  0.20513446E-02 -0.35145476E-01  0.17050120E-03  0.11312905E-04
  0.29530971E+02  0.18934675E-02 -0.33742252E-01  0.16258137E-03  0.11804621E-04
  0.30787608E+02  0.17354472E-02 -0.32345586E-01  0.15597728E-03  0.73440043E-05
  0.32044245E+02  0.16341774E-02 -0.31124684E-01  0.15104519E-03  0.71770579E-05
  0.33300882E+02  0.15258974E-02 -0.29921033E-01  0.14723874E-03  0.44460040E-05
  0.34557519E+02  0.14084272E-02 -0.28832936E-01  0.14334711E-03  0.28434740E-05
  0.35814156E+02  0.13097906E-02 -0.27821306E-01  0.14121647E-03  0.27666419E-05
  0.37070793E+02  0.12341096E-02 -0.26898470E-01  0.13778955E-03  0.56395847E-06
  0.38327430E+02  0.11521842E-02 -0.26045185E-01  0.13702149E-03 -0.54452716E-06
  0.39584067E+02  0.10901410E-02 -0.25228605E-01  0.13658287E-03  0.10237819E-05
 
 #Kx Ky(2pi/N)           1           1
  0.62831853E+00 -0.58731320E+00 -0.11257681E+01  0.26825565E+00 -0.19419131E+00
  0.18849556E+01 -0.92894494E-01 -0.48169602E+00  0.28364088E-01 -0.37051646E-02
  0.31415927E+01 -0.36518904E-01 -0.30262838E+00  0.10073756E-01 -0.69177564E-03
  0.43982297E+01 -0.19430285E-01 -0.22062217E+00  0.51323405E-02 -0.16982987E-03
  0.56548668E+01 -0.11916469E-01 -0.17281796E+00  0.31012470E-02 -0.13690817E-03
  0.69115038E+01 -0.81091864E-02 -0.14244048E+00  0.20746041E-02 -0.48113372E-04
  0.81681409E+01 -0.58611821E-02 -0.12099860E+00  0.14795689E-02 -0.27335056E-04
  0.94247780E+01 -0.44217628E-02 -0.10518378E+00  0.11216790E-02 -0.21553928E-05
  0.10681415E+02 -0.34540025E-02 -0.92884900E-01  0.86688670E-03 -0.60634433E-05
  0.11938052E+02 -0.27601242E-02 -0.83224410E-01  0.70756251E-03 -0.11260238E-04
  0.13194689E+02 -0.22559145E-02 -0.75281032E-01  0.58073353E-03 -0.21858094E-05
  0.14451326E+02 -0.18923010E-02 -0.69018313E-01  0.49159755E-03 -0.45888862E-05
  0.15707963E+02 -0.15904247E-02 -0.63421733E-01  0.42224489E-03 -0.30285803E-05
  0.16964600E+02 -0.13591909E-02 -0.58776547E-01  0.36925685E-03 -0.60468051E-05
  0.18221237E+02 -0.11703989E-02 -0.54757223E-01  0.32960138E-03  0.72110700E-06
  0.19477874E+02 -0.10086383E-02 -0.51029965E-01  0.29400407E-03 -0.77618872E-05
  0.20734512E+02 -0.88695914E-03 -0.48001291E-01  0.26557869E-03  0.45024541E-06
  0.21991149E+02 -0.78843684E-03 -0.45412004E-01  0.24306531E-03  0.10638077E-05
  0.23247786E+02 -0.69675610E-03 -0.42892408E-01  0.22341884E-03 -0.83163889E-06
  0.24504423E+02 -0.62000678E-03 -0.40696790E-01  0.20834268E-03  0.11141172E-05
  0.25761060E+02 -0.55820220E-03 -0.38754689E-01  0.19295179E-03  0.15222538E-05
  0.27017697E+02 -0.49993053E-03 -0.36947192E-01  0.18277093E-03  0.25027509E-06
  0.28274334E+02 -0.44963951E-03 -0.35296892E-01  0.17342083E-03 -0.16432373E-05
  0.29530971E+02 -0.40169396E-03 -0.33681182E-01  0.16561728E-03 -0.28473604E-05
  0.30787608E+02 -0.36664970E-03 -0.32404934E-01  0.15847388E-03  0.47732982E-06
  0.32044245E+02 -0.33201565E-03 -0.31135505E-01  0.15276300E-03 -0.30429528E-05
  0.33300882E+02 -0.30153667E-03 -0.29990896E-01  0.14824707E-03 -0.26802057E-06
  0.34557519E+02 -0.27298969E-03 -0.28900618E-01  0.14467971E-03 -0.39989985E-05
  0.35814156E+02 -0.24665933E-03 -0.27903939E-01  0.14269341E-03  0.19683967E-05
  0.37070793E+02 -0.22374338E-03 -0.26956300E-01  0.13960858E-03  0.11228768E-05
  0.38327430E+02 -0.20061800E-03 -0.26057614E-01  0.13890603E-03 -0.30092099E-05
  0.39584067E+02 -0.17981698E-03 -0.25211727E-01  0.13801766E-03 -0.17975721E-05
 
 #Kx Ky(2pi/N)           1           2
  0.62831853E+00 -0.38108422E+00 -0.10922215E+00 -0.19923243E-01 -0.16378962E-01
  0.18849556E+01 -0.24523658E+00 -0.20368321E+00 -0.21531377E-03 -0.15007222E-01
  0.31415927E+01 -0.14630083E+00 -0.19813694E+00  0.33729493E-02 -0.70866494E-02
  0.43982297E+01 -0.91899906E-01 -0.17235230E+00  0.30001000E-02 -0.33760758E-02
  0.56548668E+01 -0.61799788E-01 -0.14776763E+00  0.22380130E-02 -0.17737307E-02
  0.69115038E+01 -0.43906328E-01 -0.12767597E+00  0.16801886E-02 -0.10142983E-02
  0.81681409E+01 -0.32550338E-01 -0.11163481E+00  0.12628948E-02 -0.64402982E-03
  0.94247780E+01 -0.24989475E-01 -0.98687148E-01  0.99964507E-03 -0.42618449E-03
  0.10681415E+02 -0.19800841E-01 -0.88441449E-01  0.80136623E-03 -0.28680016E-03
  0.11938052E+02 -0.16118580E-01 -0.80085845E-01  0.66189162E-03 -0.21247324E-03
  0.13194689E+02 -0.13258718E-01 -0.73034886E-01  0.55266232E-03 -0.15311859E-03
  0.14451326E+02 -0.11191452E-01 -0.67074619E-01  0.47061493E-03 -0.12244462E-03
  0.15707963E+02 -0.94613260E-02 -0.62002016E-01  0.40874624E-03 -0.92357447E-04
  0.16964600E+02 -0.81406817E-02 -0.57625341E-01  0.35623769E-03 -0.73892660E-04
  0.18221237E+02 -0.70889394E-02 -0.53770852E-01  0.31815211E-03 -0.61059830E-04
  0.19477874E+02 -0.62091130E-02 -0.50397963E-01  0.28600425E-03 -0.48369995E-04
  0.20734512E+02 -0.54611026E-02 -0.47479054E-01  0.25699736E-03 -0.37214893E-04
  0.21991149E+02 -0.48556760E-02 -0.44838102E-01  0.23691425E-03 -0.30618600E-04
  0.23247786E+02 -0.43536794E-02 -0.42477915E-01  0.21789115E-03 -0.26753008E-04
  0.24504423E+02 -0.38983772E-02 -0.40384035E-01  0.20272239E-03 -0.20499711E-04
  0.25761060E+02 -0.35442178E-02 -0.38386649E-01  0.19150730E-03 -0.18301850E-04
  0.27017697E+02 -0.32442737E-02 -0.36738379E-01  0.18232866E-03 -0.14130820E-04
  0.28274334E+02 -0.29332658E-02 -0.34997948E-01  0.17162538E-03 -0.16056050E-04
  0.29530971E+02 -0.26949191E-02 -0.33609317E-01  0.16495655E-03 -0.98425077E-05
  0.30787608E+02 -0.24603636E-02 -0.32227862E-01  0.15729733E-03 -0.10453458E-04
  0.32044245E+02 -0.22931167E-02 -0.31018509E-01  0.15173602E-03 -0.87190137E-05
  0.33300882E+02 -0.21198351E-02 -0.29824943E-01  0.14800382E-03 -0.84084658E-05
  0.34557519E+02 -0.19476571E-02 -0.28746376E-01  0.14354022E-03 -0.72468831E-05
  0.35814156E+02 -0.17972831E-02 -0.27742274E-01  0.14077764E-03 -0.45460696E-05
  0.37070793E+02 -0.16766142E-02 -0.26825786E-01  0.13922067E-03 -0.49618119E-05
  0.38327430E+02 -0.15519418E-02 -0.25977896E-01  0.13804043E-03 -0.36118469E-05
  0.39584067E+02 -0.14498743E-02 -0.25164894E-01  0.13698434E-03  0.71917895E-06
 
 #Kx Ky(2pi/N)           1           3
  0.62831853E+00 -0.58731320E+00 -0.11257681E+01  0.26825565E+00 -0.19419131E+00
  0.18849556E+01 -0.92894494E-01 -0.48169602E+00  0.28364088E-01 -0.37051646E-02
  0.31415927E+01 -0.36518904E-01 -0.30262838E+00  0.10073756E-01 -0.69177564E-03
  0.43982297E+01 -0.19430285E-01 -0.22062217E+00  0.51323405E-02 -0.16982987E-03
  0.56548668E+01 -0.11916469E-01 -0.17281796E+00  0.31012470E-02 -0.13690817E-03
  0.69115038E+01 -0.81091864E-02 -0.14244048E+00  0.20746041E-02 -0.48113372E-04
  0.81681409E+01 -0.58611821E-02 -0.12099860E+00  0.14795689E-02 -0.27335056E-04
  0.94247780E+01 -0.44217628E-02 -0.10518378E+00  0.11216790E-02 -0.21553928E-05
  0.10681415E+02 -0.34540025E-02 -0.92884900E-01  0.86688670E-03 -0.60634433E-05
  0.11938052E+02 -0.27601242E-02 -0.83224410E-01  0.70756251E-03 -0.11260238E-04
  0.13194689E+02 -0.22559145E-02 -0.75281032E-01  0.58073353E-03 -0.21858094E-05
  0.14451326E+02 -0.18923010E-02 -0.69018313E-01  0.49159755E-03 -0.45888862E-05
  0.15707963E+02 -0.15904247E-02 -0.63421733E-01  0.42224489E-03 -0.30285803E-05
  0.16964600E+02 -0.13591909E-02 -0.58776547E-01  0.36925685E-03 -0.60468051E-05
  0.18221237E+02 -0.11703989E-02 -0.54757223E-01  0.32960138E-03  0.72110700E-06
  0.19477874E+02 -0.10086383E-02 -0.51029965E-01  0.29400407E-03 -0.77618872E-05
  0.20734512E+02 -0.88695914E-03 -0.48001291E-01  0.26557869E-03  0.45024541E-06
  0.21991149E+02 -0.78843684E-03 -0.45412004E-01  0.24306531E-03  0.10638077E-05
